INDEX VERSION 1.131+/Users/ramanujdas/Documents/Training-Programs/del-blr-july-22/del-bangalore-spring-ms/.metadata/.plugins/org.eclipse.jdt.core
2312410671.index
3080144584.index
1607965782.index
1087858489.index
1741347744.index
3273017081.index
1133690956.index
3476211869.index
3342454269.index
2221487066.index
3374532401.index
1368054717.index
2004232491.index
461597772.index
1626170033.index
227776671.index
3005080743.index
1922689370.index
1373235316.index
243758887.index
118923684.index
1120174752.index
2141587769.index
158481789.index
3619811034.index
59547902.index
2139201029.index
1418563494.index
64824282.index
1084759741.index
3063181443.index
4232423632.index
3693878363.index
420959152.index
3183747889.index
2443013920.index
3259384409.index
1324976906.index
3602981986.index
2253140768.index
2066393175.index
419232177.index
216131707.index
4102190753.index
1051983816.index
258566322.index
4143989723.index
3782373448.index
3378785013.index
817630645.index
684421408.index
2278081497.index
3560662554.index
2261910821.index
1561441718.index
2602656144.index
2598280259.index
299473233.index
3495948430.index
4034344238.index
207988674.index
387613679.index
4229962843.index
727307210.index
4172963526.index
1577106740.index
2582269185.index
3608589320.index
2650685889.index
3873828520.index
1425510607.index
2461178579.index
3222457771.index
2217412785.index
825256169.index
2653309650.index
1356171300.index
982223326.index
1794050372.index
1938421591.index
1808803265.index
3256442671.index
7917873.index
4291007060.index
472691783.index
1363630322.index
4196823742.index
1556193067.index
1849392730.index
1738486524.index
2955176211.index
1226153973.index
535113075.index
3395646781.index
163915754.index
1233971000.index
942342892.index
3876299066.index
215722452.index
3443337902.index
2935202582.index
3514951207.index
1168980829.index
1865797976.index
1511254181.index
2046817627.index
3571215773.index
3639216297.index
2582330483.index
103669109.index
1695885752.index
541879797.index
2502464519.index
3148013854.index
1667093125.index
1810424110.index
1387859264.index
1746863223.index
3856666822.index
1760719022.index
2636400142.index
1519783889.index
4005951508.index
2109913676.index
