INDEX VERSION 1.131+/Users/ramanujdas/Documents/Training-Programs/del-blr-july-22/del-bangalore-spring-ms/.metadata/.plugins/org.eclipse.jdt.core
867935240.index
956215192.index
3916213523.index
1996988759.index
1324976906.index
1731821824.index
3782373448.index
1695885752.index
2278081497.index
230970649.index
1556193067.index
258566322.index
2004232491.index
118923684.index
1146649629.index
472691783.index
1741347744.index
4172963526.index
4079154871.index
2217412785.index
1120174752.index
1072498497.index
3873828520.index
2502464519.index
1607965782.index
3148013854.index
3796245281.index
2253140768.index
2461178579.index
1865797976.index
1738486524.index
2046817627.index
2650685889.index
1781260297.index
1626170033.index
3366479856.index
136669627.index
174360101.index
1418563494.index
3374532401.index
2141587769.index
747402657.index
63968551.index
3537629251.index
252236326.index
2443013920.index
842005679.index
2215804412.index
3322631277.index
158481789.index
1505178435.index
243758887.index
2636400142.index
227776671.index
60906725.index
2955176211.index
4229962843.index
3867010718.index
3395646781.index
3514951207.index
1918228868.index
1243136314.index
4109306606.index
3571215773.index
3005080743.index
1226153973.index
3608589320.index
208156538.index
1561441718.index
4232423632.index
4005951508.index
3602981986.index
3222457771.index
2569633400.index
420959152.index
3774562955.index
942342892.index
982223326.index
3476211869.index
979122241.index
774378375.index
727307210.index
1519783889.index
3876299066.index
1922689370.index
3443337902.index
2653309650.index
1133690956.index
345792935.index
4102190753.index
535113075.index
1577106740.index
2152336284.index
1825757320.index
3273017081.index
676466781.index
2935202582.index
1384292732.index
2432678828.index
461597772.index
1925714899.index
207988674.index
1051983816.index
215722452.index
1511254181.index
1917721063.index
1849392730.index
684421408.index
3719473973.index
2312410671.index
666493535.index
3252791492.index
4034344238.index
738422340.index
2221487066.index
3080144584.index
1808803265.index
3856666822.index
3586660504.index
1425510607.index
174932559.index
1368054717.index
2602656144.index
1846935648.index
817630645.index
850035504.index
64824282.index
1087858489.index
1519740460.index
1457660375.index
7917873.index
3256442671.index
1760719022.index
2582330483.index
1810424110.index
3693878363.index
1356171300.index
